# Energy [MeV], best_fit, best_fit-2*sigma, best_fit-sigma, best_fit+sigma, best_fit+2*sigma
-7.599000000000000199e-01 nan nan nan nan nan
-6.037000000000000144e-01 nan nan nan nan nan
-4.475000000000000089e-01 nan nan nan nan nan
-2.913000000000000034e-01 5.277485800000000227e-01 4.919385037529088178e-01 5.098435418764544202e-01 5.503091009461076322e-01 5.728696218922152417e-01
-1.350999999999999979e-01 9.539222699999999611e-01 8.934617467943603009e-01 9.236920083971801310e-01 9.917018924415508252e-01 1.029481514883101578e+00
2.110000000000000764e-02 1.398027799999999932e+00 1.315688232884322684e+00 1.356858016442161308e+00 1.449014304593446267e+00 1.500000809186892603e+00
1.773000000000000131e-01 1.679823599999999972e+00 1.588568646410643437e+00 1.634196123205321705e+00 1.735839071814459178e+00 1.791854543628918384e+00
3.334999999999999076e-01 2.117232299999999956e+00 2.011625917006372166e+00 2.064429108503186061e+00 2.181275476753781639e+00 2.245318653507563322e+00
4.897000000000000242e-01 2.944682600000000150e+00 2.810921099296328940e+00 2.877801849648164545e+00 3.024776209623041723e+00 3.104869819246083296e+00
6.459000000000001407e-01 3.482972600000000085e+00 3.340550096917269229e+00 3.411761348458634657e+00 3.567120258389215870e+00 3.651267916778431655e+00
8.021000000000000352e-01 3.492544200000000210e+00 3.357434039629593414e+00 3.424989119814796812e+00 3.566998883133866816e+00 3.641453566267733422e+00
9.582999999999999297e-01 3.710429200000000094e+00 3.575084725869941416e+00 3.642756962934970755e+00 3.783798102245729211e+00 3.857167004491458329e+00
1.114500000000000046e+00 5.052893199999999752e+00 4.879751503125524081e+00 4.966322351562761916e+00 5.145231373964380239e+00 5.237569547928760727e+00
1.270700000000000163e+00 7.129266300000000278e+00 6.900587351098800504e+00 7.014926825549400391e+00 7.248848327398633273e+00 7.368430354797266268e+00
1.426899999999999835e+00 9.214400299999999433e+00 8.923757488341285793e+00 9.069078894170642613e+00 9.355224340188973642e+00 9.496048380377947851e+00
1.583099999999999952e+00 1.320298499999999997e+01 1.276118433302039712e+01 1.298208466651019855e+01 1.340753436676991228e+01 1.361208373353982459e+01
1.739300000000000068e+00 2.029701999999999984e+01 1.956699975681981485e+01 1.993200987840990734e+01 2.060626264929010532e+01 2.091550529858021079e+01
1.895500000000000185e+00 3.304615799999999837e+01 3.173306245184465268e+01 3.238961022592232553e+01 3.360763087064098187e+01 3.416910374128196537e+01
2.051700000000000301e+00 5.309319700000000353e+01 5.078490455261240299e+01 5.193905077630620326e+01 5.408860996010238154e+01 5.508402292020475954e+01
2.207899999999999974e+00 8.161492900000000361e+01 7.775174937006592302e+01 7.968333918503296331e+01 8.328139161068322949e+01 8.494785422136645536e+01
2.364100000000000090e+00 1.195229499999999945e+02 1.134053284750193171e+02 1.164641392375096558e+02 1.221867076977010242e+02 1.248504653954020540e+02
2.520300000000000207e+00 1.627589000000000112e+02 1.534326151264448583e+02 1.580957575632224348e+02 1.666908433033568997e+02 1.706227866067137882e+02
2.676499999999999879e+00 2.060284599999999955e+02 1.930037224341264164e+02 1.995160912170632059e+02 2.113922132382899406e+02 2.167559664765798857e+02
2.832699999999999996e+00 2.416836999999999875e+02 2.249791037106873546e+02 2.333314018553436711e+02 2.483218687534801177e+02 2.549600375069602478e+02
2.988900000000000112e+00 3.020749799999999823e+02 2.794198107337106194e+02 2.907473953668553008e+02 3.112056593558367581e+02 3.203363387116735339e+02
3.145100000000000229e+00 3.439463799999999765e+02 3.161348946258192427e+02 3.300406373129096096e+02 3.552948139216663890e+02 3.666432478433328015e+02
3.301300000000000345e+00 4.638961499999999774e+02 4.236745994066788512e+02 4.437853747033394143e+02 4.804897319988022559e+02 4.970833139976045345e+02
3.457500000000000462e+00 5.922363900000000285e+02 5.374379332897535733e+02 5.648371616448768009e+02 6.150688199447669149e+02 6.379012498895338013e+02
3.613699999999999690e+00 7.685756800000000339e+02 6.929976994192683151e+02 7.307866897096341745e+02 8.003514435550907820e+02 8.321272071101815300e+02
3.769899999999999807e+00 8.902105099999999993e+02 7.975194017031259364e+02 8.438649558515629678e+02 9.295062210429515517e+02 9.688019320859031041e+02
3.926099999999999923e+00 1.094472800000000007e+03 9.741976820160148236e+02 1.034335241008007415e+03 1.145855532850657482e+03 1.197238265701314958e+03
4.082300000000000040e+00 1.374171100000000024e+03 1.215254815279968170e+03 1.294712957639984097e+03 1.442550856053690723e+03 1.510930612107381421e+03
4.238500000000000156e+00 1.563103900000000067e+03 1.373376800776799428e+03 1.468240350388399747e+03 1.645294142295580514e+03 1.727484384591160961e+03
4.394700000000000273e+00 1.975398599999999988e+03 1.724338374942161863e+03 1.849868487471080925e+03 2.084856112422405658e+03 2.194313624844811329e+03
4.550900000000000389e+00 2.463502399999999852e+03 2.135909340242593771e+03 2.299705870121296812e+03 2.606992604180597027e+03 2.750482808361194202e+03
4.707100000000000506e+00 2.998585700000000088e+03 2.582668866827073998e+03 2.790627283413537043e+03 3.181771257184408114e+03 3.364956814368816140e+03
4.863300000000000622e+00 3.779504899999999907e+03 3.233700505273200179e+03 3.506602702636600043e+03 4.021176391182171756e+03 4.262847882364343604e+03
5.019499999999999851e+00 4.156411600000000362e+03 3.532528325135100204e+03 3.844469962567550283e+03 4.434069826937707148e+03 4.711728053875413934e+03
5.175699999999999967e+00 5.469855999999999767e+03 4.617799527457640579e+03 5.043827763728820173e+03 5.850934672938218682e+03 6.232013345876437597e+03
5.331900000000000084e+00 6.857197299999999814e+03 5.750268607134656122e+03 6.303732953567327968e+03 7.354646282539474669e+03 7.852095265078949524e+03
5.488100000000000200e+00 8.239424800000000687e+03 6.862945148432781934e+03 7.551184974216391311e+03 8.860901563014234853e+03 9.482378326028469019e+03
5.644300000000000317e+00 9.505750000000000000e+03 7.864328818844616762e+03 8.685039409422308381e+03 1.025022228053021172e+04 1.099469456106042344e+04
5.800500000000000433e+00 1.177922799999999916e+04 9.679266808841304737e+03 1.072924740442065195e+04 1.273588764221272868e+04 1.369254728442545820e+04
5.956700000000000550e+00 1.589232599999999911e+04 1.295690863195692691e+04 1.442461731597846301e+04 1.722922756257776928e+04 1.856612912515553762e+04
6.112899999999999778e+00 2.136100400000000081e+04 1.729506322532233753e+04 1.932803361266116917e+04 2.322017949010023221e+04 2.507935498020046361e+04
6.269099999999999895e+00 2.521732600000000093e+04 2.027569605680317909e+04 2.274651102840159001e+04 2.748583548539316689e+04 2.975434497078633285e+04
6.425300000000000011e+00 3.136352300000000105e+04 2.504187348068075516e+04 2.820269824034037811e+04 3.428212616845010780e+04 3.720072933690021455e+04
6.581500000000000128e+00 3.575886699999999837e+04 2.812383060705995740e+04 3.194134880352997789e+04 3.919180713953662053e+04 4.262474727907324268e+04
6.737700000000000244e+00 4.559343400000000111e+04 3.558735729468368663e+04 4.059039564734184387e+04 5.010521657004726148e+04 5.461699914009452186e+04
6.893900000000000361e+00 7.763271099999999569e+04 6.013515717769875482e+04 6.888393408884937526e+04 8.554498892210124177e+04 9.345726684420248785e+04
7.050100000000000477e+00 1.402710899999999965e+05 1.078267999133835256e+05 1.240489449566917610e+05 1.549839656377751671e+05 1.696968412755503377e+05
7.206300000000000594e+00 2.962580300000000279e+05 2.259912177092077909e+05 2.611246238546039094e+05 3.282146541154278675e+05 3.601712782308557071e+05
7.362500000000000711e+00 nan nan nan nan nan
7.518700000000000827e+00 nan nan nan nan nan
7.674900000000000944e+00 nan nan nan nan nan
7.831100000000001060e+00 nan nan nan nan nan
7.987299999999999400e+00 nan nan nan nan nan
8.143499999999999517e+00 nan nan nan nan nan
8.299699999999999633e+00 nan nan nan nan nan
8.455899999999999750e+00 nan nan nan nan nan
8.612099999999999866e+00 nan nan nan nan nan
