# Energy [MeV], best_fit, best_fit-2*sigma, best_fit-sigma, best_fit+sigma, best_fit+2*sigma
-7.599000000000000199e-01 nan nan nan nan nan
-6.037000000000000144e-01 nan nan nan nan nan
-4.475000000000000089e-01 nan nan nan nan nan
-2.913000000000000034e-01 5.277485800000000227e-01 4.784265207985886059e-01 5.030875503992943143e-01 5.519903348631934881e-01 5.762320897263869535e-01
-1.350999999999999979e-01 9.539222699999999611e-01 8.714509912838402927e-01 9.126866306419201269e-01 9.943534000436403675e-01 1.034784530087280885e+00
2.110000000000000764e-02 1.398027799999999932e+00 1.286987816665072337e+00 1.342507808332536134e+00 1.452335890863712731e+00 1.506643981727425530e+00
1.773000000000000131e-01 1.679823599999999972e+00 1.558252842678740757e+00 1.619038221339370365e+00 1.739204004730395381e+00 1.798584409460790789e+00
3.334999999999999076e-01 2.117232299999999956e+00 1.978805906699658390e+00 2.048019103349829173e+00 2.184678776110332343e+00 2.252125252220664731e+00
4.897000000000000242e-01 2.944682600000000150e+00 2.772982989444731317e+00 2.858832794722365733e+00 3.028195351999793061e+00 3.111708103999585973e+00
6.459000000000001407e-01 3.482972600000000085e+00 3.304610764207696505e+00 3.393791682103848295e+00 3.569756971913506494e+00 3.656541343827012902e+00
8.021000000000000352e-01 3.492544200000000210e+00 3.338575356571087838e+00 3.415559778285544024e+00 3.567580100491580364e+00 3.642616000983160518e+00
9.582999999999999297e-01 3.710429200000000094e+00 3.570684601933202806e+00 3.640556900966601450e+00 3.777454773480078742e+00 3.844480346960157391e+00
1.114500000000000046e+00 5.052893199999999752e+00 4.874374149260194855e+00 4.963633674630097303e+00 5.136313053824498986e+00 5.219732907648998221e+00
1.270700000000000163e+00 7.129266300000000278e+00 6.894191801503224859e+00 7.011729050751612569e+00 7.247588255529542778e+00 7.365910211059085277e+00
1.426899999999999835e+00 9.214400299999999433e+00 8.927343535615181125e+00 9.070871917807590279e+00 9.368295996137563364e+00 9.522191692275127295e+00
1.583099999999999952e+00 1.320298499999999997e+01 1.277165130950882421e+01 1.298731815475441209e+01 1.343429894990553386e+01 1.366561289981106775e+01
1.739300000000000068e+00 2.029701999999999984e+01 1.955869707118580081e+01 1.992785853559290032e+01 2.069857275960765364e+01 2.110012551921530743e+01
1.895500000000000185e+00 3.304615799999999837e+01 3.171215943687023042e+01 3.237915871843511439e+01 3.378752402895398177e+01 3.452889005790796517e+01
2.051700000000000301e+00 5.309319700000000353e+01 5.067332004806347356e+01 5.188325852403173855e+01 5.444359073023286300e+01 5.579398446046572246e+01
2.207899999999999974e+00 8.161492900000000361e+01 7.747101517157615547e+01 7.954297208578807954e+01 8.393647312826560380e+01 8.625801725653120400e+01
2.364100000000000090e+00 1.195229499999999945e+02 1.128348491790788017e+02 1.161788995895393981e+02 1.234033445883974309e+02 1.272837391767948674e+02
2.520300000000000207e+00 1.627589000000000112e+02 1.525703158385258291e+02 1.576646079192629202e+02 1.686742994708020831e+02 1.745896989416041549e+02
2.676499999999999879e+00 2.060284599999999955e+02 1.916399742714596641e+02 1.988342171357298298e+02 2.143187122392738218e+02 2.226089644785476480e+02
2.832699999999999996e+00 2.416836999999999875e+02 2.230623647242748575e+02 2.323730323621374225e+02 2.523530882747966757e+02 2.630224765495933639e+02
2.988900000000000112e+00 3.020749799999999823e+02 2.766305645517799121e+02 2.893527722758899472e+02 3.165954031093223193e+02 3.311158262186446564e+02
3.145100000000000229e+00 3.439463799999999765e+02 3.125139644735721731e+02 3.282301722367860748e+02 3.618213172237805111e+02 3.796962544475610457e+02
3.301300000000000345e+00 4.638961499999999774e+02 4.184319376663493699e+02 4.411640438331746736e+02 4.898605024616234118e+02 5.158248549232469031e+02
3.457500000000000462e+00 5.922363900000000285e+02 5.298758715654673779e+02 5.610561307827337032e+02 6.277622261390270069e+02 6.632880622780539852e+02
3.613699999999999690e+00 7.685756800000000339e+02 6.820649641937235401e+02 7.253203220968617870e+02 8.177773236832663315e+02 8.669789673665326291e+02
3.769899999999999807e+00 8.902105099999999993e+02 7.835681262826775537e+02 8.368893181413387765e+02 9.508017724306819218e+02 1.011393034861363844e+03
3.926099999999999923e+00 1.094472800000000007e+03 9.554735217427210046e+02 1.024973160871360506e+03 1.173413364011642898e+03 1.252353928023285789e+03
4.082300000000000040e+00 1.374171100000000024e+03 1.189785915268135795e+03 1.281978507634067910e+03 1.478889660333338725e+03 1.583608220666677425e+03
4.238500000000000156e+00 1.563103900000000067e+03 1.342191108906155023e+03 1.452647504453077545e+03 1.688619736747570869e+03 1.814135573495141671e+03
4.394700000000000273e+00 1.975398599999999988e+03 1.682146996196858254e+03 1.828772798098429121e+03 2.142141303239285207e+03 2.308884006478570427e+03
4.550900000000000389e+00 2.463502399999999852e+03 2.080313618551481795e+03 2.271908009275740824e+03 2.681608892661673508e+03 2.899715385323347164e+03
4.707100000000000506e+00 2.998585700000000088e+03 2.510976652481471774e+03 2.754781176240735931e+03 3.276486246288210623e+03 3.554386792576421158e+03
4.863300000000000622e+00 3.779504899999999907e+03 3.138303703418526311e+03 3.458904301709263109e+03 4.145496830019748813e+03 4.511488760039497720e+03
5.019499999999999851e+00 4.156411600000000362e+03 3.422124213967622381e+03 3.789267906983811372e+03 4.576249463880281837e+03 4.996087327760563312e+03
5.175699999999999967e+00 5.469855999999999767e+03 4.465327451623863453e+03 4.967591725811931610e+03 6.045291738534195247e+03 6.620727477068390726e+03
5.331900000000000084e+00 6.857197299999999814e+03 5.550180571217197212e+03 6.203688935608598513e+03 7.607422681055400062e+03 8.357648062110800311e+03
5.488100000000000200e+00 8.239424800000000687e+03 6.611851055288005227e+03 7.425637927644002957e+03 9.175680844481010354e+03 1.011193688896202002e+04
5.644300000000000317e+00 9.505750000000000000e+03 7.562417410019006638e+03 8.534083705009503319e+03 1.062620082087306400e+04 1.174665164174612801e+04
5.800500000000000433e+00 1.177922799999999916e+04 9.290119914713213802e+03 1.053467395735660648e+04 1.321777556138170803e+04 1.465632312276341690e+04
5.956700000000000550e+00 1.589232599999999911e+04 1.242521789616878777e+04 1.415877194808439344e+04 1.790110946766326015e+04 1.990989293532651936e+04
6.112899999999999778e+00 2.136100400000000081e+04 1.655510293768739939e+04 1.895805346884370010e+04 2.415262513742423835e+04 2.694424627484847588e+04
6.269099999999999895e+00 2.521732600000000093e+04 1.937244239490693872e+04 2.229488419745346982e+04 2.862153082375939266e+04 3.202573564751878439e+04
6.425300000000000011e+00 3.136352300000000105e+04 2.388176813856117951e+04 2.762264556928059028e+04 3.573300440554196393e+04 4.010248581108392682e+04
6.581500000000000128e+00 3.575886699999999837e+04 2.703563564189777389e+04 3.139725132094888613e+04 4.089583249369337864e+04 4.603279798738675890e+04
6.737700000000000244e+00 4.559343400000000111e+04 3.415601573733961413e+04 3.987472486866980762e+04 5.234186516553533147e+04 5.909029633107066184e+04
6.893900000000000361e+00 7.763271099999999569e+04 5.762366413749720959e+04 6.762818756874860264e+04 8.946289127601202927e+04 1.012930715520240628e+05
7.050100000000000477e+00 1.402710899999999965e+05 1.031557137040752859e+05 1.217134018520376412e+05 1.622622033288665116e+05 1.842533166577330267e+05
7.206300000000000594e+00 2.962580300000000279e+05 2.158459140761455637e+05 2.560519720380727958e+05 3.440102152066844865e+05 3.917624004133689450e+05
7.362500000000000711e+00 nan nan nan nan nan
7.518700000000000827e+00 nan nan nan nan nan
7.674900000000000944e+00 nan nan nan nan nan
7.831100000000001060e+00 nan nan nan nan nan
7.987299999999999400e+00 nan nan nan nan nan
8.143499999999999517e+00 nan nan nan nan nan
8.299699999999999633e+00 nan nan nan nan nan
8.455899999999999750e+00 nan nan nan nan nan
8.612099999999999866e+00 nan nan nan nan nan
